# intensity: 0.999759367768681
# background: 3.98752991908393e-06
#           Q (1/A)             dQ (1/A)                    R                   dR               theory              fresnel
  0.0080538604275464 9.27036495052909e-05   0.0837108507255705  0.00145381170645267   0.0838156354997419      0.9997633552986
 0.00856269070049495 9.86943536648214e-05    0.076700937233689  0.00129504508152539   0.0753363424748765      0.9997633552986
 0.00906277575859996 0.000105066123988297   0.0673486368020344  0.00115090486434918    0.066874508391443      0.9997633552986
 0.00955403097270299  0.00011083385240397   0.0587591021454134  0.00103007476013693   0.0597261337422542    0.999763355298601
  0.0100628601509682 0.000117363578169634   0.0533186961737108  0.00092276244594199   0.0533451955099255      0.9997633552986
  0.0105716889167634 0.000123204763375661   0.0487232035326672 0.000830430616901398   0.0478370996671588      0.9997633552986
  0.0110673567721658 0.000129635821089913   0.0428607896257844 0.000752497417873033   0.0431823410195613    0.952879912864682
  0.0115631297847446 0.000135287234893296   0.0388165072641852 0.000684496887723417    0.039122293298738    0.568667301185981
  0.0120674266802116 0.000141830278647599   0.0356153213743743 0.000623927877105593   0.0355094752030291    0.287130503045275
  0.0125631343370889 0.000147616408155671   0.0317853621613196 0.000571551566167879   0.0323915138577303     0.17691442851308
  0.0130632224705394 0.000154143169620931    0.029943157559221 0.000524845205069456   0.0296181927158914    0.123631565443291
  0.0135588905350928  0.00015989884585481   0.0280137254727824 0.000483749364691951   0.0271849026996729   0.0918890901126779
  0.0140676631622859 0.000166311511942567   0.0246539947357639 0.000446184759029847   0.0249673727951011   0.0704347421532755
  0.0145633943369763 0.000172429337302923   0.0233838993977857 0.000413458518559778   0.0230411622369937   0.0558230034450184
  0.0150633967430794 0.000178413921005277   0.0219384504089335 0.000383809504544682   0.0213013786181963   0.0450776021551238
  0.0155678299632001 0.000184779199640711     0.01950304070881 0.000356861154955549    0.019724343178396   0.0369390280333888
  0.0160678606660104 0.000190945277831372   0.0179386732162174 0.000332706885487512    0.018314215428349   0.0307341624743376
  0.0165635154144589 0.000196987985539304   0.0169291830420457 0.000310966326213229   0.0170477463959312   0.0259032741249442
  0.0170635955297891 0.000203078401673033   0.0152087174243569 0.000290982600869788   0.0158856970811962   0.0220126621105736
  0.0175680179827907 0.000209414042813132   0.0146253417977868 0.000272571169519633   0.0148164468767707   0.0188409762618493
  0.0180680992393116 0.000215217270813397   0.0137398332332257 0.000255846309895831   0.0138459491989387   0.0162689620856459
   0.018563736942581 0.000221941372909841   0.0132080187310667  0.00024060315278687   0.0129618993759343   0.0141598780340893
    0.01905937430779 0.000227513949504408   0.0123789358665922 0.000226540691647189   0.0121464215945233   0.0123973744695843
   0.019568214088659 0.000234080267592868    0.011661846673449 0.000213197970490676   0.0113724060793071   0.0108757827474178
  0.0200638169022457 0.000239682907936094   0.0106313357316602 0.000201155115548209   0.0106732693842082  0.00961999180890999
   0.020563917290683 0.000246365355506586  0.00991680897093716 0.000189861136581908   0.0100170642299685  0.00853863796065836
  0.0210683623447226  0.00025218583642612   0.0092753854886608 0.000179252716082609  0.00939989768731711  0.00760250865244452
  0.0215640373402666 0.000258547135114556  0.00878438910218724 0.000169521317197892  0.00883295571907796  0.00680835215929034
  0.0220552696468521 0.000264465393202421  0.00812894612834779 0.000160494179454711  0.00830624862183033  0.00612458096945126
  0.0225684699890084 0.000270685700201783  0.00777062555112272 0.000151654485708367   0.0077898630541699  0.00550222632643364
  0.0230685255163875 0.000276670238716549  0.00739413970318562 0.000143572283700027  0.00731687796562394  0.00497183967690878
  0.0235641597262673 0.000283153175792287  0.00669606458463663 0.000136035010915614  0.00687521863514808  0.00450959080949914
  0.0240597818431821 0.000289332384283288  0.00652860343489853 0.000128929943945056   0.0064584276134189  0.00410133961311803
  0.0245686489555751 0.000295352624889422  0.00609365399456957 0.000122051253776937  0.00605467156545628  0.00373081248595275
  0.0250642138658909 0.000301653248961901  0.00596789853692834 0.000115794715401825  0.00569016983969194  0.00342130837301256
   0.027476708309799 0.000330762133591565  0.00404998369567273 8.94433039555633e-05  0.00414663835876031  0.00228536229147971
  0.0298627210454089 0.000360706684897928  0.00295506265742781 6.89397619879531e-05  0.00295900061042959   0.0015883153753693
  0.0322663862555313 0.000389748033678131  0.00200253102923019 5.25316706498114e-05  0.00204053071849431  0.00113839894547529
  0.0346699717927193 0.000419580665540499  0.00130559692215809 3.94581151452685e-05  0.00135135514177329 0.000838837020578633
  0.0370647896768869 0.000449011605856178  0.00088272548775968   2.913876884062e-05 0.000854337553688046  0.00063334121594113
  0.0394639136467992 0.000478428767081269 0.000505154745481718 2.11073814154656e-05  0.00051269949282275 0.000487583690017968
  0.0418542367938215 0.000507779109268661 0.000304324063802539 1.51583841967742e-05 0.000296918229966118 0.000382279184068949
   0.044257679777497  0.00053742575704418 0.000169282838532385 1.11235577938561e-05 0.000176049849038511 0.000303941996079142
  0.0466698578141738 0.000567076082439892 0.000122069845404009  8.9184182288056e-06 0.000124240027716785 0.000244781732735527
  0.0490600676490979 0.000596270575630053 0.000110412003183076 8.16855523887942e-06 0.000117678538483913  0.00019994058574782
  0.0514677448422326 0.000626114677920192 0.000129667669134776 8.16640067902317e-06 0.000135917949338118 0.000164893404687841
  0.0538666632639476 0.000655158655776082 0.000180705448110194  8.3331015784747e-06 0.000163068087347924 0.000137458876557838
  0.0562654790397343 0.000685117682836549 0.000184083083472671 8.37907711090678e-06 0.000187963164546603 0.000115654162638215
  0.0586730464043387 0.000714193933160867 0.000191405776990541 8.21166089914949e-06 0.000203795315730882 9.80820871141898e-05
  0.0610673723170946 0.000743796272406707 0.000204527378043775 7.83416209101172e-06 0.000207423849040297 8.39155882852111e-05
  0.0634704604578643 0.000773799529855426 0.000195821437359234 7.28324289732468e-06 0.000198952404547511 7.22881786990983e-05
   0.065877822589376 0.000802840020508099 0.000176272873925549 6.61179486660264e-06 0.000180507132926268 6.26889781478311e-05
  0.0682632401217337 0.000832402579446615 0.000153562523503999  5.8825114185919e-06 0.000155747322657205 5.47891494021857e-05
  0.0706617217707445 0.000861771395320303  0.00012918578177072 5.13612391750036e-06 0.000128059620225039 4.81458150690438e-05
  0.0730732947083046 0.000891466359459845 0.000105207197010524 4.41837217241116e-06  0.00010082533333239 4.25275363284846e-05
  0.0754672783495346 0.000920630452111383  8.2483301660365e-05 3.77659589789877e-06 7.69939822975971e-05 3.78085168424168e-05
   0.077869934569554 0.000950439283134376  5.5051146013119e-05  3.2325255869666e-06 5.78665025278898e-05 3.37784865305783e-05
   0.080263807207678 0.000979415987352337 4.06760241840867e-05 2.80678470784527e-06 4.41138430185608e-05 3.03437782778673e-05
  0.0826575584491695  0.00100918564427824 3.33825448268989e-05 2.49782408332463e-06 3.53170783027227e-05 2.73913681612617e-05
  0.0850556345452584  0.00103875670430296 3.26992638093537e-05 2.28825310250656e-06 3.05102117480602e-05 2.48374854623204e-05
  0.0874580167785702  0.00106800653014074 2.97030126639323e-05 2.14886637639972e-06 2.84410221797859e-05 2.26194478893157e-05
  0.0898603190070946  0.00109795777917863 2.45047627370574e-05 2.04804273349078e-06 2.78296669012763e-05 2.06891436339163e-05
  0.0922581667732407  0.00112678771445892 3.02640881280887e-05 1.96055380074205e-06 2.75991853371998e-05 1.90057339795047e-05
  0.0946603013338333  0.00115655048195956 2.79674315872075e-05 1.87100369664528e-06 2.70265425320159e-05  1.7527063995591e-05
  0.0970623440598239   0.0011859743268197 2.72403757038168e-05 1.77395200600859e-06  2.5785196944048e-05 1.62262559786331e-05
  0.0994686608931409   0.0012155659395303 2.56911525458814e-05  1.6705139161115e-06 2.38973565739571e-05 1.50762339499873e-05
   0.101866159614226  0.00124475312363842 2.35944338536361e-05 1.56663626972883e-06 2.16487275023338e-05 1.40618131964095e-05
   0.104263563847886  0.00127412104624696  1.8162393100909e-05 1.46878400735248e-06 1.94198458521083e-05 1.31609960957041e-05
   0.106665232906308  0.00130387072265866 1.95504770392739e-05  1.3829145553737e-06 1.75785715017445e-05 1.23574880960137e-05
   0.109071205207529  0.00133329866284543 1.58283018993516e-05 1.31268412121832e-06 1.63804168955549e-05 1.16388729466987e-05
   0.111468300023572   0.0013630254195818 1.39201709783307e-05 1.25856806760915e-06 1.59090875399541e-05 1.09980859525189e-05
   0.113874063139607  0.00139204977505389 1.79619150714809e-05 1.21699820565646e-06 1.60573390962097e-05 1.04210811103385e-05
   0.116266574220801  0.00142185997191626 1.53705805951456e-05 1.18312050178782e-06 1.65757834459016e-05 9.90501910047796e-06
   0.118672119994582  0.00145077131047309 1.83034506995838e-05 1.15090702799164e-06  1.7145478628581e-05 9.43732232238677e-06
   0.121073182612038  0.00148053388363016 1.88571849176229e-05 1.11589933505201e-06 1.74399959823092e-05 9.01570554599973e-06
   0.123465355101066  0.00151004418075783  1.4611283145024e-05 1.07524856540349e-06 1.72146061421756e-05 8.63547352169903e-06
   0.125866218975079  0.00153903562547717 1.69331710020966e-05 1.02769950457422e-06 1.63460369617116e-05 8.28935373211417e-06
   0.128266934145599  0.00156888028713748 1.28346544821774e-05 9.74275970982867e-07 1.48578313268159e-05 7.97490464045363e-06
   0.130667503536237  0.00159810944226732 1.33218492026404e-05 9.17354044483515e-07 1.29083784976918e-05 7.68870204675359e-06
   0.133068017730868  0.00162776383512395 1.08151285492675e-05 8.60302359018111e-07 1.07517604656177e-05 7.42774690867532e-06
   0.135459632224582  0.00165679854206143 7.97624758063028e-06 8.07076003875263e-07 8.69008369475239e-06 7.19025610769447e-06
   0.137868625132427   0.0016865722092506  7.6892668056311e-06 7.60570025110068e-07 6.97719403795159e-06  6.9714160217371e-06
   0.140264356756499   0.0017154950114912 4.50151857700044e-06 7.23780279753922e-07 5.83902136823252e-06 6.77201121977978e-06
   0.142664351806038  0.00174522652814517  4.9781928103788e-06 6.97134413938686e-07 5.36169165482667e-06 6.58869613560052e-06
   0.145064215034611   0.0017743733732958 6.50285162350995e-06 6.79631048698474e-07 5.52599274016886e-06 6.42023738550543e-06
   0.147472684962158  0.00180376526541151 5.83641265900478e-06 6.68735175090745e-07  6.2064093456516e-06 6.26466885356707e-06
   0.149859138948528  0.00183376944305896 7.11126747659922e-06 6.61378915903869e-07 7.18629531807702e-06 6.12260716356377e-06
   0.152262959410096   0.0018627383965317 8.46736680392363e-06 6.54373873092545e-07 8.24154196637755e-06 5.99054295502771e-06
   0.154657894277325  0.00189240251093145 9.53497758150582e-06 6.45414718310005e-07 9.13308784321823e-06   5.868971825666e-06
   0.157057066042174  0.00192156028449619 9.54859391396966e-06 6.32991888313898e-07  9.6883308577489e-06 5.75630021913815e-06
   0.159456094134463  0.00195105013959331 8.60096042235599e-06 6.16593388817046e-07 9.80405264662526e-06 5.65195547008383e-06
   0.161854985288268  0.00198016888808019 9.20223476877597e-06 5.96538254234877e-07 9.46800022410469e-06 5.55519513570982e-06
   0.164249330684988  0.00200963259330446 9.02856738309113e-06  5.7381534614976e-07 8.74956339307758e-06 5.46553511599956e-06
   0.166656672335528  0.00203886927437594 7.73615638611954e-06 5.49615501734965e-07 7.77170475613467e-06   5.381760949883e-06
   0.169063862089992  0.00206849903626825 6.68886438503007e-06 5.25602107086501e-07 6.70076724717025e-06 5.30384514920943e-06
   0.171462130658917  0.00209799767674311 5.32810628433852e-06 5.03303640466231e-07 5.70360582480472e-06 5.23155851004772e-06
    0.17386461908143  0.00212698986725567 4.60239746498766e-06 4.83703022693508e-07  4.9084986026865e-06 5.16405374266783e-06
   0.176258208843747  0.00215692038379634 4.66391049721836e-06 4.67498059368548e-07  4.4040966087675e-06 5.10129596761481e-06
   0.178664752587161  0.00218567603701396  3.6689790950851e-06 4.54565601120705e-07 4.21317995056347e-06 5.04236077032211e-06
   0.181066764127538  0.00221554042805671  4.2235115150802e-06 4.44518194566619e-07 4.30962896927915e-06 4.98737505356264e-06
   0.183464232989942  0.00224458813928187 4.78589453507858e-06  4.3649435435621e-07 4.61807120403324e-06 4.93602005869447e-06
   0.185848411059399  0.00227382334704401 4.52108483228684e-06 4.29546484656196e-07 5.03661161556632e-06 4.88818119704782e-06
   0.188254295525597  0.00230329304994732 4.83745526109108e-06 4.22690721582171e-07 5.46675792942101e-06 4.84292699740561e-06
   0.190646864246215  0.00233252265346384 5.28005696949597e-06 4.15362240265986e-07 5.81095437576477e-06  4.8007079230628e-06
   0.193056771464979  0.00236199988312982 6.09270793371602e-06 4.07079819711333e-07 6.00902003167678e-06 4.76078415990179e-06
   0.195453371950193  0.00239108384732536 6.29894860457997e-06 3.97849428570266e-07 6.02934937070513e-06 4.72348168118103e-06
   0.197849795372601  0.00242068209918909 5.19978299875804e-06 3.87773228988363e-07 5.88018872556844e-06 4.68840559386237e-06
   0.200250429126909  0.00244955945994935 5.65910344262781e-06 3.77148280392603e-07 5.59710905022155e-06 4.65533865546315e-06
   0.202655228731001  0.00247939533462822 5.23126081507491e-06 3.66378833903765e-07 5.23472634012141e-06 4.62414762654812e-06
   0.205055465431042  0.00250826202015077 5.32981855976733e-06 3.55915513656638e-07  4.8562148120685e-06    4.59481037769e-06
   0.207451162205805  0.00253762499065279 4.33924334857344e-06 3.46098633392744e-07 4.51788104554158e-06 4.56719551431472e-06
    0.20985539741751  0.00256726148970004 4.54892776149935e-06 3.37100784489146e-07 4.25989669316449e-06 4.54104315216845e-06
   0.212250710815778  0.00259627793199075 4.04042468771355e-06  3.2907039267078e-07 4.10624483935853e-06 4.51644056363595e-06
   0.214654552597015  0.00262578106559386 4.58238650133882e-06 3.21895013743446e-07  4.0568275783886e-06 4.49310808508323e-06
   0.217053821438037   0.0026549254302826 4.43591984131649e-06 3.15461858298967e-07 4.09572084578144e-06  4.4710891424967e-06
   0.219452932811732  0.00268439986118975 4.72644064604566e-06 3.09545883344744e-07 4.19405240222324e-06 4.45025780393946e-06
   0.221860569240803  0.00271335358815511 4.12771867381956e-06  3.0390728397568e-07 4.31835850842903e-06 4.43046797682648e-06
    0.22425050387984  0.00274287345455292 4.27471453332031e-06 2.98418050175858e-07 4.43498278452509e-06 4.41185967911611e-06
   0.226657717198125  0.00277172375321214 4.55105372819244e-06 2.92865394091135e-07 4.52032013095019e-06 4.39409414838587e-06
   0.229055979744497  0.00280111356988341 4.59776104459204e-06 2.87243604567531e-07 4.55835359049939e-06 4.37731014973327e-06
   0.231454032761907  0.00283049732118445 5.12201047266472e-06 2.81528766840235e-07  4.5458330200564e-06 4.36138496176631e-06
   0.233851879616964  0.00285981385521731 3.94611261307014e-06  2.7576494938489e-07 4.48903645884278e-06 4.34626631231915e-06
   0.236253871368064  0.00288929377497885 4.69183388936264e-06 2.70014677424481e-07 4.40110200409076e-06 4.33188028997115e-06
   0.238655645385983  0.00291797515023666  4.3488267384307e-06 2.64370420044521e-07 4.29888571651143e-06 4.31820925777566e-06
   0.241048483642378  0.00294771294853715 4.13438964254049e-06  2.5892526836104e-07 4.19936249953014e-06 4.30528412146254e-06
   0.243449817619335  0.00297665591335689 3.99447888862367e-06 2.53693834351065e-07  4.1156485542068e-06 4.29318803223832e-06
   0.245855274924976  0.00300603591280311 4.41532672403264e-06 2.48715097253914e-07 4.05701202315801e-06 4.28271453024229e-06
   0.248256172292776  0.00303496581656317  3.9197036155782e-06 2.43993373472502e-07 4.02371293066548e-06 4.27490593981843e-06
   0.250656838150253  0.00306431596449746 3.44493883022706e-06 2.39473301864786e-07 4.00759700952936e-06 4.26982908222383e-06
