# intensity: 1.02531497957944
# background: 2.50468491940554e-06
#           Q (1/A)             dQ (1/A)                    R                   dR               theory              fresnel
  0.0076329506058291 0.000209054613054011        0.08634541668      0.0025603588041    0.084784246608061     1.02531748426436
 0.00814178115334882 0.000214659991714561       0.078215381966      0.0022733926929   0.0771755240802021     1.02531748426436
 0.00864186649811674 0.000220769159981196       0.067198582951      0.0019551173426   0.0675499896405595     1.02531748426436
 0.00913312201004748 0.000226197081001936       0.057016468461      0.0016853631724   0.0593400689908656     1.02531748426436
 0.00964195151374981 0.000232497435252564       0.053185987312      0.0015667129286   0.0520308188561943     1.02393932070071
  0.0101507806222349 0.000237993893051792       0.045745232306      0.0013463079996   0.0457371696129438    0.914670715111657
   0.010646448828053  0.00024423903387219        0.04103340377       0.001206680152   0.0404358119309883    0.513135426428744
  0.0111422222074992 0.000249575336079327       0.037154673432      0.0010998497533   0.0358289052138651    0.259333218730159
  0.0116465194929451  0.00025595001014873       0.032270905417     0.00097309436628   0.0317485729813786    0.157639979266748
  0.0121422275496758 0.000261468890454889       0.030285189317     0.00090650166674   0.0282450628989947     0.10933494799835
  0.0126423161031059 0.000267852274783732       0.025438059025     0.00077406277334   0.0251484638543891   0.0803967213200087
  0.0131379846003722 0.000273356224594223       0.022903244334     0.00070206965243   0.0224519724838401   0.0615834933947873
  0.0136467576887456 0.000279601887054349       0.020941659098     0.00065024718286   0.0200159565135186   0.0481824003291031
  0.0141424893293869 0.000285543496403708       0.018923064357     0.00058677749577   0.0179215576866712   0.0387333904404881
  0.0146424922220445 0.000291329082426433       0.017116211755     0.00053627643673   0.0160520446344275   0.0316106123317451
  0.0151469259499137 0.000297551032432587       0.014995975081     0.00047853100972   0.0143802628763314   0.0261157314212383
  0.0156469571727764  0.00030355950262193       0.013594950787     0.00044308578965   0.0129081621039598   0.0218663584327701
  0.0161426124531701 0.000309441955494315       0.011717633535      0.0003884343628   0.0116084510769309   0.0185208351206552
  0.0166426931217869 0.000315375903731853       0.010774921178     0.00035865186268   0.0104383538097994   0.0158022438583687
  0.0171471161497626 0.000321586616951951      0.0092130099407     0.00031625463242  0.00938420818634208   0.0135698144962124
  0.0176471979930473 0.000327204638018721      0.0084656119626        0.00029637975  0.00844924709000985   0.0117484536736419
   0.018142836294311 0.000333883611819989      0.0079025954064     0.00027500091971  0.00761862287087364   0.0102475882340587
  0.0186384742738849 0.000339259319129189      0.0066232577143     0.00024027758882   0.0068725984580397  0.00898787537031805
  0.0191473147025148 0.000345741331828541      0.0055237733036     0.00020993861571  0.00618483900276005  0.00789662624865506
  0.0196429181635991   0.0003511622000355      0.0054402937032     0.00020593417691  0.00558253969999622  0.00699330224268173
  0.0201430192220024 0.000357798365807348      0.0047720724049     0.00018338624356  0.00503540404112815   0.0062134175955619
  0.0206474649687135 0.000363458513844128      0.0044608946297     0.00017346783299  0.00453828876000602   0.0055367727784051
  0.0211431406614054 0.000369746603586531      0.0038168089913     0.00015455221931  0.00409794647216504  0.00496178628109238
  0.0216343736750449 0.000375547698234803      0.0036496240859     0.00014836852877  0.00370386094164278  0.00446582920963944
  0.0221475747730513  0.00038165392500325      0.0032358856595     0.00013491181313  0.00333244842904331  0.00401375510753396
  0.0226476310538045 0.000387521720873723      0.0029806203116      0.0001258452882  0.00300605324432731  0.00362812104801849
  0.0231432660268419 0.000393956787112569      0.0026520305918     0.00011543051078  0.00271385252738033  0.00329166303206302
  0.0236388889232667 0.000400054718585829       0.002317720565     0.00010478196393  0.00244972044143105  0.00299419361431464
  0.0241477568530343 0.000405957342411063      0.0020803476792     9.6457021844e-05  0.00220631521116724  0.00272526579817557
  0.0246433225759447 0.000412195654363441      0.0018726666643     6.7888537125e-05   0.0019996684504228  0.00250082580799275
  0.0270558212094883 0.000440861987527365      0.0010955754341     5.9930732947e-05  0.00122005929864853  0.00167210910825747
  0.0294418384702829 0.000470536876972921     0.00068822669374     4.2705738675e-05 0.000742862651970314  0.00116075196882513
  0.0318455086227352 0.000499233341595801     0.00038205590059     2.9175002901e-05  0.00045648376153302 0.000830853521817642
  0.0342490994871644 0.000528829073334984     0.00027428802073     2.2979616402e-05 0.000291662508019183 0.000611357077518673
  0.0366439230621196 0.000558023971194749     0.00020992013224     1.8887831883e-05 0.000201598534018297 0.000460926890196812
  0.0390430531163783 0.000587222641148878     0.00017878291946     1.6428758375e-05 0.000155504314688826 0.000354338330740548
  0.0414333827070063 0.000616378850836149     0.00015320563905     1.4346369893e-05 0.000134346345313574 0.000277412965429602
  0.0438368325536916 0.000645857708300882      0.0001279583107     1.2505359819e-05 0.000125839794224177  0.00022024958834068
  0.0462490178655299 0.000675346776183524     0.00011568876015     1.1358271362e-05 0.000122634026456115 0.000177125133503532
  0.0486392352920071 0.000704381975496306     0.00011474864321     1.0648769035e-05 0.000120374386086984 0.000144470570247274
  0.0510469205172772 0.000734106580179574     0.00011554320753     1.0195096521e-05 0.000116674003547396 0.000118973479786856
  0.0534458473263294 0.000762997070446698     0.00010620211611     9.4326468746e-06 0.000110536887071386 9.90326178934073e-05
  0.0558446718728142 0.000792869139664166      9.531035598e-05      8.564990304e-06  0.00010176947900844 8.31983999330416e-05
  0.0582522484259527 0.000821806177993982     8.9509450134e-05     7.8026974421e-06 9.06830358187596e-05 7.04485835042929e-05
   0.060646583860089 0.000851318100237301     8.0686262219e-05      7.083153203e-06 7.80612074659618e-05 6.01780661212325e-05
  0.0630496819415363 0.000881252430365878     6.3396182875e-05     6.2113913319e-06 6.46395779376369e-05 5.17549493369566e-05
  0.0654570544176162 0.000910174281224333     5.8864371009e-05     5.7986854315e-06 5.13332878494939e-05 4.48060808861548e-05
  0.0678424825815576 0.000939666776663139     4.3237449192e-05     4.9048918192e-06 3.91113363211222e-05 3.90913986410581e-05
  0.0702409753030973 0.000968951411390757     3.9069999344e-05     4.5737667037e-06  2.8471161087053e-05 3.42888968974965e-05
   0.072652559760565 0.000998574505559478     2.2886647423e-05     3.8596939509e-06 1.99134155025535e-05 3.02299347434021e-05
   0.075046555221473  0.00102765625012388     1.3195364229e-05     3.4554812735e-06 1.37678413182757e-05 2.68226845188201e-05
  0.0774492236884906  0.00105741150854618     9.8278785225e-06     3.0793513575e-06 9.92641190440198e-06 2.39145797472213e-05
  0.0798431089119608  0.00108630513049799     1.0560895404e-05     2.9954863678e-06 8.15863553226459e-06 2.14374069382242e-05
  0.0822368731205844  0.00111603042784422     7.3038198838e-06     2.8528466054e-06  8.0187016430536e-06  1.9309189446807e-05
  0.0846349625907206  0.00114554835196798     1.4364990167e-05     3.1560665228e-06 8.97608698101727e-06 1.74691603393017e-05
  0.0870373586069995  0.00117473183042198     1.4718536491e-05     2.9334544451e-06 1.04770299329877e-05 1.58718597537146e-05
  0.0894396750033003  0.00120464813243534     1.9323223131e-05     2.9052022651e-06  1.2011178449428e-05 1.44824013412886e-05
  0.0918375372951823  0.00123340245653059     2.1829020468e-05     2.9021092799e-06 1.31782954040357e-05 1.32711804709702e-05
  0.0942396867924229  0.00126312678136554     2.6387221727e-05     3.0360404597e-06 1.37310756632495e-05 1.22077172312408e-05
  0.0966417448397967  0.00129250090603614     2.3026477941e-05     2.7917344254e-06  1.3571568704155e-05 1.12723827063969e-05
  0.0990480774081294  0.00132204892776214     2.1048831586e-05     2.5876682965e-06 1.27438411253941e-05 1.04461529832382e-05
   0.101445592191202   0.0013511835852086     2.3654959422e-05     2.5986886124e-06 1.14055303755152e-05 9.71743131011226e-06
   0.103843012870166   0.0013805073915842     2.3102232492e-05     2.6184681121e-06 9.76503446090631e-06 9.07055218914867e-06
   0.106244698788158  0.00141022589866751     1.7625805761e-05     2.3633800802e-06 8.04227782451537e-06 8.49371081208444e-06
   0.108650688365596  0.00143961085603093     1.0241285549e-05     2.0652306614e-06 6.43249544873763e-06 7.97801022037513e-06
   0.111047800778802  0.00146930983295682     1.0472926816e-05     2.0314368881e-06 5.08252415447354e-06 7.51830728270066e-06
   0.113453581941749  0.00149828061786647     3.7705378133e-06     1.9123760282e-06 4.05178046313708e-06 7.10448762037211e-06
   0.115846111354117  0.00152806970073623     4.2119788252e-06     1.8708917025e-06 3.35248773893608e-06 6.73448560060833e-06
   0.118251675944737  0.00155692686829885     4.7772262071e-06      1.768246704e-06 2.92984535056642e-06  6.3992534238598e-06
   0.120652757729777  0.00158666513648828     4.1814711059e-06     1.7010251012e-06 2.71325551383987e-06 6.09713568573996e-06
   0.123044949698788   0.0016161475079992     4.2081155122e-06     1.7154951149e-06 2.62227053730945e-06 5.82474425751451e-06
   0.125445833508358  0.00164509293533252     3.8468795144e-06      1.706304384e-06 2.59156858399925e-06 5.57685310108966e-06
   0.127846568998717  0.00167491804881497     5.5460512043e-06     1.6199560741e-06 2.58351455555825e-06 5.35170168598478e-06
   0.130247159093485  0.00170411033278437     3.5808722144e-06     1.5352031033e-06 2.58956373228481e-06 5.14682397911618e-06
   0.132647694377326  0.00173374093109757     5.7496188851e-06     1.5860647056e-06 2.62519543516766e-06 4.96006380683906e-06
   0.135039330265532  0.00176273820347066     4.1068299123e-06     1.5922163377e-06 2.71802964176468e-06 4.79013380244135e-06
   0.137448345110329  0.00179248964397215      9.052515487e-06     1.5538679064e-06 2.89638611347392e-06 4.63358392295086e-06
   0.139844098935849  0.00182137218504941     3.7787917517e-06     1.4144475575e-06 3.17156624286816e-06 4.49096722314201e-06
   0.142244116611626  0.00185108455561693     6.3656889147e-06     1.4530216804e-06 3.53701865386632e-06 4.35988567938504e-06
   0.144644002850851  0.00188019727797718     6.6277728644e-06     1.5094158441e-06 3.96079284366142e-06 4.23945037496246e-06
   0.147052496259359   0.0019095593323935     5.1434651907e-06     1.3695784218e-06 4.39405281712292e-06 4.12825376560652e-06
   0.149438973895282  0.00193955700526935     5.5380980098e-06     1.3069808689e-06 4.77172396620338e-06 4.02673716270839e-06
   0.151842818564216  0.00196848788148439     5.5605317465e-06     1.2933826518e-06 5.04349353283627e-06 3.93237552046856e-06
   0.154237777934365  0.00199813473372892     8.7320219425e-06      1.368346308e-06 5.16381790124524e-06 3.84552835609667e-06
   0.156636974630891  0.00202726182000469     5.2535267711e-06     1.2564950505e-06 5.11578693512217e-06 3.76505115619496e-06
   0.159036028039148  0.00205672961282265     6.5245919049e-06     1.2235943709e-06  4.9092969812251e-06  3.6905294688264e-06
   0.161434944893285  0.00208581788716624     5.2701707875e-06     1.2142834813e-06 4.58164085359471e-06 3.62144035087776e-06
    0.16382931632641  0.00211526110170824     2.5255939125e-06     1.2354818678e-06 4.19108397859569e-06 3.55743121594892e-06
   0.166236684542293  0.00214446853914812     4.4740396715e-06     1.2145684228e-06 3.80207968685939e-06 3.49763332515069e-06
   0.168643901249126   0.0021740785655105     1.9674937532e-06     1.1161639995e-06 3.48221631431475e-06 3.44202580311288e-06
   0.171042197057138  0.00220355731388364     4.7382052799e-06     1.1196367763e-06 3.28339869445222e-06 3.39044332530917e-06
    0.17344471315365  0.00223251743807621     4.4456835275e-06     1.1340583214e-06 3.23265721389998e-06 3.34228004623952e-06
   0.175838330872713  0.00226243946087409     6.0693024405e-06     1.1247407892e-06 3.33166854250796e-06 3.29750997948296e-06
   0.178244903111914  0.00229115761039009     7.3154119856e-06     1.0720275246e-06 3.55734980297263e-06  3.2554725179285e-06
    0.18064694348218  0.00232101007204143     5.1053719673e-06     1.0258240586e-06 3.86402196361067e-06 3.21625761794806e-06
   0.183044441506333  0.00235002986158206     5.7134866976e-06      1.053128738e-06 4.19478095278381e-06 3.17963677996142e-06
    0.18542864895877  0.00237924497279416     7.5706810741e-06     1.0742755796e-06 4.49091573321335e-06 3.14552752518569e-06
   0.187834563462602  0.00240869396003776     6.6508701168e-06     9.9718909703e-07 4.70700797283438e-06 3.11326525483995e-06
   0.190227162440362  0.00243790161501931     7.6518170557e-06     9.7847467822e-07 4.80597975187366e-06 3.08317035537703e-06
   0.192637100524498  0.00246735770414557     7.1758317623e-06     9.8290280641e-07 4.77539525159816e-06 3.05471515078424e-06
   0.195033732091878  0.00249641627780547     7.2546848619e-06     1.0039586762e-06 4.62292099102809e-06 3.02813134462166e-06
   0.197430186980351  0.00252599960368894      6.761991461e-06     9.3429785155e-07  4.3740797772236e-06 3.00313692071294e-06
   0.199830852643293   0.0025548470560041     6.6039515386e-06     9.0572936565e-07 4.06574240585854e-06 2.97957683129293e-06
   0.202235684600116   0.0025846708300316     5.6098266576e-06     9.0331526218e-07 3.74021422567861e-06 2.95735793144041e-06
   0.204635953979545  0.00261350808511683      4.067034538e-06     9.3381204702e-07 3.43881431701141e-06 2.93645993933114e-06
   0.207031683758553  0.00264285241029441     4.4327535834e-06     8.6681747877e-07 3.19286816160357e-06 2.91679098621772e-06
   0.209435952480593  0.00267247347073234     3.7242591719e-06     8.2552113387e-07 3.02028806723449e-06  2.8981655284221e-06
   0.211831299651924  0.00270146520213508     4.7652469675e-06     8.3048432913e-07 2.92750303719823e-06 2.88064396502018e-06
   0.214235175714993  0.00273095076936644     4.8673451361e-06     8.5877380353e-07 2.90627873578388e-06 2.86403002516266e-06
   0.216634479160828  0.00276007224203774     6.0231028511e-06     8.1879541304e-07 2.93957344640898e-06 2.84835289629766e-06
   0.219033625524951  0.00278952990398844     5.5103562763e-06      7.757090739e-07 3.00449522185453e-06 2.83352272211134e-06
   0.221441297458826  0.00281845583258841     5.0499710532e-06     7.6806426164e-07 3.07751671856681e-06  2.8194353189918e-06
   0.223831267728155  0.00284796200661957     4.8851298393e-06     7.9382985158e-07 3.13713446030616e-06 2.80619018043845e-06
   0.226238517323722  0.00287678323833279     5.5964440963e-06     7.7285996248e-07 3.16934335281178e-06 2.79354602543635e-06
   0.228636816401204  0.00290615547965677     5.3551533217e-06     7.3140833932e-07 3.16609782267821e-06 2.78160150663887e-06
   0.231034906334578  0.00293552166955922     5.7540369503e-06     7.2556965876e-07   3.127331897124e-06 2.77026912703942e-06
   0.233432790490504  0.00296481962487558     4.4777496115e-06     7.3559078736e-07 3.05879012676353e-06 2.75951156100785e-06
   0.235834819996126  0.00299428289309941     6.3568285403e-06     7.3823368045e-07 2.96999560304207e-06 2.74927615988952e-06
   0.238236632154708   0.0030229345455471     5.4504108218e-06     6.9060619668e-07 2.87243513624948e-06 2.73955022261396e-06
   0.240629508797343  0.00305266200708723     5.2336374262e-06     6.7580342642e-07 2.77749954507345e-06 2.73036441194482e-06
   0.243030881685758  0.00308157995544828     4.4128662057e-06     6.8579877078e-07 2.69422707438935e-06 2.72180619040172e-06
   0.245436378360399  0.00311094129100464     4.4796996598e-06     6.9151246892e-07 2.63082476489091e-06 2.71445452402396e-06
   0.247837315412633   0.0031398463704577     5.1146264921e-06     6.5402656673e-07 2.58995718305997e-06 2.70898421501825e-06
   0.250238021340465  0.00316917853008435     4.6609131944e-06     6.3619614175e-07 2.56662622555895e-06 2.70539343673295e-06
